Time (s),Acceleration z (m/s^2)
0.027582,0.468781
0.031579,0.535828
0.035608,0.612442
0.039636,0.689056
0.043664,0.753693
0.047693,0.801575
0.051721,0.825516
0.055719,0.849457
0.059747,0.871017
0.063775,0.887772
0.067773,0.916504
0.071801,0.942841
0.075799,0.983536
0.079828,1.029022
0.083856,1.067337
0.087854,1.110428
0.091882,1.143951
0.095880,1.165497
0.099878,1.187042
0.103906,1.199020
0.107904,1.206207
0.111932,1.215775
0.115930,1.225357
0.119958,1.232544
0.123956,1.244507
0.127954,1.249298
0.131982,1.261261
0.135980,1.266052
0.139978,1.263657
0.143976,1.261261
0.148004,1.251694
0.152002,1.246902
0.155999,1.230148
0.159997,1.210983
0.164026,1.184647
0.168023,1.165497
0.172021,1.141556
0.176019,1.115219
0.180017,1.093674
0.184015,1.072128
0.188012,1.048187
0.192010,1.017059
0.196008,0.990723
0.200006,0.952408
0.204004,0.914108
0.208001,0.873413
0.212030,0.825516
0.216028,0.789612
0.220025,0.751297
0.224023,0.722565
0.228021,0.684265
0.232019,0.641174
0.236017,0.598068
0.240014,0.547791
0.244012,0.509491
0.248010,0.473572
0.252008,0.420898
0.256036,0.377808
0.260034,0.339493
0.264032,0.303589
0.268030,0.260498
0.272027,0.214996
0.276025,0.176697
0.280023,0.138382
0.284021,0.090500
0.288019,0.049805
0.292016,0.006699
0.296014,-0.031601
0.300012,-0.072296
0.304010,-0.108215
0.308008,-0.151306
0.312005,-0.189621
0.316003,-0.227921
0.320001,-0.268631
0.323999,-0.309326
0.327997,-0.340454
0.331994,-0.376373
0.335992,-0.409882
0.339990,-0.443405
0.343988,-0.479324
0.347986,-0.512833
0.351983,-0.543961
0.355981,-0.575089
0.359979,-0.608612
0.363977,-0.637329
0.368005,-0.668457
0.372003,-0.704376
0.376001,-0.728317
0.379998,-0.754654
0.383996,-0.778595
0.387994,-0.804932
0.391992,-0.824081
0.395990,-0.848022
0.399988,-0.869568
0.403985,-0.888733
0.407983,-0.900696
0.411981,-0.924637
0.415979,-0.943787
0.419977,-0.953369
0.423974,-0.960556
0.428003,-0.970123
0.432000,-0.982101
0.435998,-0.994064
0.439996,-1.003647
0.443994,-1.008438
0.447992,-1.003647
0.451989,-1.006042
0.455987,-1.001251
0.459985,-1.001251
0.463983,-1.003647
0.467981,-1.001251
0.471978,-0.996460
0.475976,-0.994064
0.480005,-0.982101
0.484002,-0.972519
0.488000,-0.955765
0.491998,-0.936615
0.495996,-0.919846
0.499994,-0.898300
0.503991,-0.888733
0.507989,-0.864792
0.511987,-0.845627
0.515985,-0.826477
0.519983,-0.807327
0.523980,-0.780991
0.527978,-0.749863
0.531976,-0.725922
0.536004,-0.706772
0.540002,-0.675644
0.544000,-0.642120
0.547998,-0.618179
0.551996,-0.587051
0.555993,-0.558319
0.559991,-0.522415
0.563989,-0.488892
0.567987,-0.450592
0.571985,-0.419464
0.575982,-0.385941
0.579980,-0.347641
0.584009,-0.318909
0.588006,-0.285385
0.592004,-0.247086
0.596002,-0.211166
0.600000,-0.175247
0.603998,-0.129761
0.607995,-0.089066
0.611993,-0.055542
0.615991,-0.012451
0.619989,0.028259
0.623987,0.071350
0.627984,0.112045
0.631982,0.150360
0.636010,0.193451
0.640008,0.234161
0.644006,0.277252
0.648004,0.320343
0.652002,0.358658
0.655999,0.396957
0.659997,0.435272
0.663995,0.478363
0.667993,0.523849
0.671991,0.564560
0.675988,0.607651
0.679986,0.643570
0.684015,0.674683
0.688012,0.715393
0.692010,0.751297
0.696008,0.787216
0.700006,0.823135
0.704004,0.861435
0.708001,0.894958
0.711999,0.923691
0.715997,0.954803
0.719995,0.978745
0.723993,0.997910
0.727990,1.021851
0.731988,1.052979
0.736017,1.076920
0.740014,1.098465
0.744012,1.112823
0.748010,1.124802
0.752008,1.136765
0.756006,1.146347
0.760003,1.148743
0.764001,1.158310
0.767999,1.163101
0.771997,1.160706
0.775995,1.155930
0.779992,1.153534
0.784021,1.143951
0.788019,1.143951
0.792016,1.134369
0.796014,1.120010
0.800012,1.110428
0.804010,1.093674
0.808008,1.072128
0.812005,1.050583
0.816003,1.029022
0.820001,1.002686
0.823999,0.978745
0.827997,0.947632
0.832025,0.921295
0.836023,0.880585
0.840020,0.854248
0.844018,0.820740
0.848016,0.782425
0.852014,0.748901
0.856012,0.717789
0.860009,0.693848
0.864007,0.657928
0.868005,0.612442
0.872003,0.569336
0.876001,0.535828
0.880029,0.490341
0.884027,0.452026
0.888025,0.416107
0.892022,0.380203
0.896020,0.346680
0.900018,0.301193
0.904016,0.258102
0.908014,0.222183
0.912011,0.176697
0.916009,0.145569
0.920007,0.107254
0.924005,0.066559
0.928033,0.030640
0.932031,-0.010056
0.936029,-0.050751
0.940027,-0.081879
0.944024,-0.120193
0.948022,-0.158493
0.952020,-0.189621
0.956018,-0.225525
0.960016,-0.263840
0.964013,-0.297363
0.968011,-0.333267
0.972009,-0.366791
0.976007,-0.395523
0.980035,-0.429047
0.984033,-0.455383
0.988031,-0.486496
0.992029,-0.517624
0.996026,-0.548752
1.000024,-0.577484
1.004022,-0.603821
1.008020,-0.618179
1.012018,-0.651703
1.016015,-0.668457
1.020013,-0.697189
1.024011,-0.718735
1.028009,-0.737885
1.032037,-0.769012
1.036035,-0.785782
1.040033,-0.807327
1.044030,-0.824081
1.048028,-0.838455
1.052026,-0.850418
1.056024,-0.862396
1.060022,-0.869568
1.064019,-0.883942
1.068017,-0.893509
1.072015,-0.900696
1.076013,-0.907883
1.080041,-0.917450
1.084039,-0.924637
1.088037,-0.931824
1.092035,-0.927032
1.096032,-0.929428
1.100030,-0.931824
1.104028,-0.927032
1.108026,-0.919846
1.112024,-0.907883
1.116021,-0.903091
1.120019,-0.891113
1.124017,-0.876755
1.128015,-0.857605
1.132043,-0.840836
1.136041,-0.831268
1.140039,-0.816895
1.144037,-0.804932
1.148034,-0.785782
1.152032,-0.769012
1.156030,-0.740280
1.160028,-0.721130
1.164026,-0.704376
1.168023,-0.680435
1.172021,-0.658890
1.176019,-0.637329
1.180047,-0.606216
1.184045,-0.582275
1.188043,-0.563110
1.192041,-0.529602
1.196039,-0.496078
1.200036,-0.464951
1.204034,-0.431427
1.208032,-0.400314
1.212030,-0.364395
1.216028,-0.328476
1.220025,-0.302139
1.224023,-0.273422
1.228051,-0.239899
1.232049,-0.206375
1.236047,-0.165680
1.240045,-0.129761
1.244043,-0.093857
1.248040,-0.048355
1.252038,-0.007660
1.256036,0.028259
1.260034,0.064163
1.264032,0.092896
1.268030,0.131210
1.272027,0.171906
1.276056,0.203033
1.280053,0.243729
1.284051,0.286819
1.288049,0.325134
1.292047,0.356262
1.296045,0.394562
1.300042,0.428085
1.304040,0.471176
1.308038,0.516663
1.312036,0.550186
1.316034,0.590897
1.320031,0.619614
1.324029,0.653137
1.328058,0.691452
1.332055,0.729752
1.336053,0.763275
1.340051,0.789612
1.344049,0.813553
1.348047,0.837494
1.352044,0.861435
1.356042,0.892563
1.360040,0.914108
1.364038,0.940445
1.368036,0.969177
1.372033,0.988327
1.376031,1.002686
1.380060,1.024246
1.384057,1.041000
1.388055,1.045792
1.392053,1.050583
1.396051,1.062546
1.400049,1.064941
1.404046,1.067337
1.408044,1.067337
1.412042,1.079315
1.416040,1.076920
1.420038,1.072128
1.424035,1.067337
1.428064,1.052979
1.432061,1.043396
1.436059,1.038605
1.440057,1.017059
1.444055,1.002686
1.448053,0.988327
1.452050,0.966782
1.456048,0.945236
1.460046,0.926071
1.464044,0.897354
1.468042,0.875793
1.472040,0.851852
1.476037,0.823135
1.480066,0.789612
1.484063,0.760880
1.488061,0.717789
1.492059,0.691452
1.496057,0.655533
1.500055,0.624405
1.504052,0.590897
1.508050,0.557373
1.512048,0.526245
1.516046,0.492722
1.520044,0.456818
1.524041,0.418503
1.528070,0.377808
1.532068,0.341888
1.536065,0.303589
1.540063,0.267670
1.544061,0.238937
1.548059,0.200638
1.552057,0.171906
1.556054,0.140778
1.560052,0.107254
1.564050,0.071350
1.568048,0.033035
1.572046,-0.010056
1.576074,-0.053146
1.580072,-0.086670
1.584070,-0.120193
1.588067,-0.153702
1.592065,-0.192017
1.596063,-0.220749
1.600061,-0.249481
1.604059,-0.285385
1.608056,-0.309326
1.612054,-0.338058
1.616052,-0.369186
1.620050,-0.402710
1.624078,-0.431427
1.628076,-0.462555
1.632074,-0.493683
1.636071,-0.517624
1.640069,-0.546356
1.644067,-0.572693
1.648065,-0.591843
1.652063,-0.615784
1.656061,-0.637329
1.660058,-0.658890
1.664056,-0.682831
1.668054,-0.704376
1.672052,-0.718735
1.676080,-0.742676
1.680078,-0.749863
1.684076,-0.761841
1.688073,-0.776199
1.692071,-0.790558
1.696069,-0.802536
1.700067,-0.814499
1.704065,-0.824081
1.708062,-0.826477
1.712060,-0.828873
1.716058,-0.840836
1.720056,-0.843231
1.724054,-0.850418
1.728082,-0.852814
1.732080,-0.852814
1.736078,-0.860001
1.740075,-0.852814
1.744073,-0.845627
1.748071,-0.836060
1.752069,-0.833664
1.756067,-0.826477
1.760064,-0.814499
1.764062,-0.804932
1.768060,-0.795349
1.772058,-0.780991
1.776086,-0.773804
1.780084,-0.754654
1.784082,-0.740280
1.788080,-0.728317
1.792077,-0.704376
1.796075,-0.678040
1.800073,-0.661270
1.804071,-0.637329
1.808069,-0.618179
1.812066,-0.601425
1.816064,-0.575089
1.820062,-0.541565
1.824090,-0.522415
1.828088,-0.500870
1.832086,-0.467346
1.836084,-0.433823
1.840082,-0.405090
1.844079,-0.376373
1.848077,-0.350037
1.852075,-0.321304
1.856073,-0.297363
1.860071,-0.268631
1.864068,-0.237503
1.868066,-0.208771
1.872064,-0.177643
1.876092,-0.151306
1.880090,-0.110611
1.884088,-0.079483
1.888086,-0.045975
1.892083,-0.005264
1.896081,0.030640
1.900079,0.073746
1.904077,0.104874
1.908075,0.135986
1.912072,0.171906
1.916070,0.210205
1.920068,0.241333
1.924096,0.279648
1.928094,0.313156
1.932092,0.344284
1.936090,0.389771
1.940088,0.423294
1.944085,0.454422
1.948083,0.490341
1.952081,0.526245
1.956079,0.557373
1.960077,0.590897
1.964074,0.619614
1.968072,0.650742
1.972101,0.677078
1.976098,0.698624
1.980096,0.736938
1.984094,0.768066
1.988092,0.796799
1.992090,0.820740
1.996087,0.842285
2.000085,0.861435
2.004083,0.885376
2.008081,0.906921
2.012079,0.928467
2.016076,0.940445
2.020074,0.950027
2.024102,0.957199
2.028100,0.969177
2.032098,0.973969
2.036096,0.981140
2.040094,0.995514
2.044092,1.000305
2.048089,0.997910
2.052087,1.000305
2.056085,1.002686
2.060083,0.993118
2.064081,0.990723
2.068078,0.988327
2.072107,0.973969
2.076104,0.950027
2.080102,0.938049
2.084100,0.923691
2.088098,0.911713
2.092096,0.894958
2.096093,0.873413
2.100091,0.849457
2.104089,0.827911
2.108087,0.818344
2.112085,0.782425
2.116082,0.758484
2.120080,0.729752
2.124109,0.701019
2.128106,0.672287
2.132104,0.645950
2.136102,0.617233
2.140100,0.588501
2.144098,0.552582
2.148095,0.523849
2.152093,0.487946
2.156091,0.447235
2.160089,0.416107
2.164087,0.384995
2.168084,0.353867
2.172113,0.315552
2.176111,0.286819
2.180108,0.258102
2.184106,0.226974
2.188104,0.188660
2.192102,0.157547
2.196100,0.119232
2.200097,0.097687
2.204095,0.059372
2.208093,0.028259
2.212091,-0.000473
2.216089,-0.038788
2.220117,-0.067520
2.224115,-0.101028
2.228113,-0.139343
2.232110,-0.165680
2.236108,-0.196808
2.240106,-0.225525
2.244104,-0.254257
2.248102,-0.282990
2.252099,-0.314117
2.256097,-0.340454
2.260095,-0.369186
2.264093,-0.402710
2.268091,-0.431427
2.272119,-0.450592
2.276117,-0.467346
2.280114,-0.488892
2.284112,-0.524811
2.288110,-0.543961
2.292108,-0.567902
2.296106,-0.587051
2.300103,-0.606216
2.304101,-0.622971
2.308099,-0.637329
2.312097,-0.654099
2.316095,-0.675644
2.320123,-0.694794
2.324121,-0.711548
2.328119,-0.723526
2.332116,-0.740280
2.336114,-0.745071
2.340112,-0.752258
2.344110,-0.759445
2.348108,-0.764221
2.352105,-0.769012
2.356103,-0.773804
2.360101,-0.788162
2.364099,-0.780991
2.368127,-0.783386
2.372125,-0.783386
2.376123,-0.785782
2.380121,-0.780991
2.384118,-0.776199
2.388116,-0.773804
2.392114,-0.769012
2.396112,-0.761841
2.400110,-0.759445
2.404107,-0.740280
2.408105,-0.733109
2.412103,-0.721130
2.416131,-0.701981
2.420129,-0.685226
2.424127,-0.673248
2.428125,-0.656494
2.432123,-0.642120
2.436120,-0.622971
2.440118,-0.610992
2.444116,-0.591843
2.448114,-0.567902
2.452112,-0.551147
2.456109,-0.527206
2.460107,-0.505661
2.464135,-0.484100
2.468133,-0.457764
2.472131,-0.431427
2.476129,-0.402710
2.480127,-0.376373
2.484124,-0.350037
2.488122,-0.323700
2.492120,-0.290176
2.496118,-0.266235
2.500116,-0.227921
2.504113,-0.208771
2.508111,-0.172867
2.512140,-0.139343
2.516137,-0.110611
2.520135,-0.077087
2.524133,-0.045975
2.528131,-0.014847
2.532129,0.001923
2.536126,0.040222
2.540124,0.076141
2.544122,0.100082
2.548120,0.133591
2.552118,0.174301
2.556146,0.205429
2.560144,0.238937
2.564142,0.272461
2.568139,0.305984
2.572137,0.337112
2.576135,0.368225
2.580133,0.401749
2.584131,0.432877
2.588128,0.461609
2.592126,0.492722
2.596124,0.526245
2.600122,0.557373
2.604120,0.586105
2.608148,0.617233
2.612146,0.643570
2.616144,0.667511
2.620141,0.691452
2.624139,0.715393
2.628137,0.739334
2.632135,0.760880
2.636133,0.780029
2.640130,0.799179
2.644128,0.823135
2.648126,0.844681
2.652124,0.863831
2.656152,0.882980
2.660150,0.892563
2.664148,0.906921
2.668145,0.911713
2.672143,0.918900
2.676141,0.923691
2.680139,0.923691
2.684137,0.928467
2.688134,0.930862
2.692132,0.928467
2.696130,0.926071
2.700128,0.923691
2.704156,0.918900
2.708154,0.916504
2.712152,0.916504
2.716150,0.899750
2.720147,0.887772
2.724145,0.871017
2.728143,0.856644
2.732141,0.835098
2.736139,0.823135
2.740136,0.803970
2.744134,0.782425
2.748132,0.763275
2.752160,0.739334
2.756158,0.722565
2.760156,0.696228
2.764154,0.672287
2.768152,0.641174
2.772149,0.612442
2.776147,0.583710
2.780145,0.552582
2.784143,0.523849
2.788141,0.490341
2.792138,0.459213
2.796136,0.437668
2.800134,0.406540
2.804162,0.377808
2.808160,0.349075
2.812158,0.313156
2.816156,0.279648
2.820154,0.243729
2.824151,0.210205
2.828149,0.188660
2.832147,0.162323
2.836145,0.131210
2.840143,0.095291
2.844140,0.056976
2.848138,0.018677
2.852166,-0.005264
2.856164,-0.033997
2.860162,-0.065125
2.864160,-0.086670
2.868158,-0.124969
2.872155,-0.153702
2.876153,-0.182434
2.880151,-0.211166
2.884149,-0.239899
2.888147,-0.259048
2.892144,-0.282990
2.896142,-0.304535
2.900140,-0.328476
2.904168,-0.354813
2.908166,-0.381149
2.912164,-0.414673
2.916162,-0.433823
2.920160,-0.460159
2.924157,-0.484100
2.928155,-0.500870
2.932153,-0.520020
2.936151,-0.539169
2.940149,-0.555939
2.944146,-0.570297
2.948144,-0.594238
2.952173,-0.610992
2.956170,-0.625366
2.960168,-0.642120
2.964166,-0.656494
2.968164,-0.666061
2.972162,-0.675644
2.976159,-0.690002
2.980157,-0.697189
2.984155,-0.699585
2.988153,-0.709167
2.992151,-0.718735
2.996179,-0.713943
3.000177,-0.721130
3.004175,-0.725922
3.008172,-0.723526
3.012170,-0.723526
3.016168,-0.721130
3.020166,-0.718735
3.024164,-0.716339
3.028161,-0.706772
3.032159,-0.697189
3.036157,-0.692398
3.040155,-0.692398
3.044183,-0.685226
3.048181,-0.680435
3.052179,-0.668457
3.056176,-0.651703
3.060174,-0.646912
3.064172,-0.634933
3.068170,-0.615784
3.072168,-0.601425
3.076165,-0.577484
3.080163,-0.563110
3.084161,-0.541565
3.088159,-0.527206
3.092187,-0.512833
3.096185,-0.488892
3.100183,-0.464951
3.104181,-0.445801
3.108178,-0.426651
3.112176,-0.405090
3.116174,-0.371582
3.120172,-0.342850
3.124170,-0.314117
3.128167,-0.294968
3.132165,-0.273422
3.136163,-0.251862
3.140191,-0.220749
3.144189,-0.189621
3.148187,-0.163284
3.152185,-0.129761
3.156183,-0.103424
3.160180,-0.072296
3.164178,-0.045975
3.168176,-0.017242
3.172174,0.016281
3.176172,0.040222
3.180169,0.073746
3.184167,0.104874
3.188165,0.128815
3.192193,0.162323
3.196191,0.193451
3.200189,0.224579
3.204187,0.255707
3.208185,0.286819
3.212182,0.320343
3.216180,0.351471
3.220178,0.380203
3.224176,0.413727
3.228174,0.442444
3.232171,0.461609
3.236169,0.492722
3.240197,0.523849
3.244195,0.552582
3.248193,0.574127
3.252191,0.602859
3.256189,0.624405
3.260186,0.650742
3.264184,0.674683
3.268182,0.691452
3.272180,0.717789
3.276178,0.736938
3.280175,0.753693
3.284173,0.772842
3.288171,0.784821
3.292199,0.799179
3.296197,0.823135
3.300195,0.832703
3.304193,0.839890
3.308191,0.849457
3.312188,0.861435
3.316186,0.871017
3.320184,0.868622
3.324182,0.873413
3.328180,0.878189
3.332177,0.878189
3.336175,0.873413
3.340173,0.868622
3.344201,0.856644
3.348199,0.851852
3.352197,0.844681
3.356195,0.837494
3.360193,0.827911
3.364190,0.815948
3.368188,0.801575
3.372186,0.787216
3.376184,0.765671
3.380182,0.751297
3.384179,0.732147
3.388177,0.703415
3.392175,0.696228
3.396203,0.669907
3.400201,0.653137
3.404199,0.631592
3.408197,0.610046
3.412195,0.583710
3.416192,0.564560
3.420190,0.538223
3.424188,0.507095
3.428186,0.475967
3.432184,0.452026
3.436181,0.428085
3.440179,0.394562
3.444177,0.361053
3.448205,0.337112
3.452203,0.308380
3.456201,0.274857
3.460199,0.243729
3.464196,0.210205
3.468194,0.181488
3.472192,0.152756
3.476190,0.121628
3.480188,0.097687
3.484186,0.066559
3.488183,0.033035
3.492181,0.011490
3.496179,-0.019638
3.500207,-0.045975
3.504205,-0.074692
3.508203,-0.096252
3.512201,-0.124969
3.516198,-0.153702
3.520196,-0.172867
3.524194,-0.201584
3.528192,-0.225525
3.532190,-0.254257
3.536187,-0.285385
3.540185,-0.304535
3.544183,-0.333267
3.548181,-0.354813
3.552209,-0.378769
3.556207,-0.400314
3.560205,-0.417068
3.564203,-0.438614
3.568200,-0.460159
3.572198,-0.479324
3.576196,-0.493683
3.580194,-0.510437
3.584192,-0.527206
3.588189,-0.541565
3.592187,-0.555939
3.596185,-0.563110
3.600183,-0.584656
3.604211,-0.596634
3.608209,-0.608612
3.612207,-0.622971
3.616205,-0.632553
3.620202,-0.634933
3.624200,-0.642120
3.628198,-0.651703
3.632196,-0.651703
3.636194,-0.661270
3.640191,-0.656494
3.644189,-0.663666
3.648187,-0.675644
3.652215,-0.673248
3.656213,-0.675644
3.660211,-0.668457
3.664209,-0.670853
3.668207,-0.661270
3.672204,-0.658890
3.676202,-0.651703
3.680200,-0.644516
3.684198,-0.630157
3.688196,-0.622971
3.692193,-0.608612
3.696191,-0.606216
3.700189,-0.599030
3.704217,-0.584656
3.708215,-0.577484
3.712213,-0.560715
3.716211,-0.543961
3.720208,-0.524811
3.724206,-0.505661
3.728204,-0.488892
3.732202,-0.467346
3.736200,-0.445801
3.740197,-0.429047
3.744195,-0.409882
3.748224,-0.385941
3.752221,-0.369186
3.756219,-0.345245
3.760217,-0.316513
3.764215,-0.287781
3.768213,-0.268631
3.772210,-0.251862
3.776208,-0.230316
3.780206,-0.196808
3.784204,-0.177643
3.788202,-0.156097
3.792199,-0.127365
3.796228,-0.096252
3.800226,-0.065125
3.804223,-0.038788
3.808221,-0.017242
3.812219,0.021072
3.816217,0.037827
3.820215,0.059372
3.824212,0.092896
3.828210,0.128815
3.832208,0.162323
3.836206,0.195847
3.840204,0.214996
3.844232,0.238937
3.848230,0.267670
3.852227,0.291611
3.856225,0.317947
3.860223,0.341888
3.864221,0.375412
3.868219,0.406540
3.872217,0.425690
3.876214,0.454422
3.880212,0.480759
3.884210,0.507095
3.888238,0.533432
3.892236,0.552582
3.896234,0.574127
3.900232,0.598068
3.904229,0.612442
3.908227,0.626801
3.912225,0.653137
3.916223,0.677078
3.920221,0.696228
3.924218,0.715393
3.928216,0.724960
3.932214,0.746521
3.936242,0.756088
3.940240,0.768066
3.944238,0.777634
3.948236,0.784821
3.952234,0.789612
3.956231,0.799179
3.960229,0.801575
3.964227,0.811157
3.968225,0.806366
3.972223,0.811157
3.976220,0.808762
3.980218,0.811157
3.984247,0.806366
3.988244,0.794403
3.992242,0.792007
3.996240,0.780029
4.000238,0.772842
4.004236,0.763275
4.008233,0.756088
4.012231,0.741730
4.016229,0.724960
4.020227,0.710602
4.024225,0.686661
4.028222,0.674683
4.032220,0.657928
4.036248,0.641174
4.040246,0.614838
4.044244,0.593277
4.048242,0.569336
4.052240,0.552582
4.056238,0.526245
4.060235,0.497513
4.064233,0.471176
4.068231,0.444839
4.072229,0.420898
4.076227,0.399353
4.080224,0.365829
4.084253,0.341888
4.088250,0.322739
4.092248,0.294006
4.096246,0.270065
4.100244,0.241333
4.104242,0.214996
4.108239,0.193451
4.112237,0.162323
4.116235,0.138382
4.120233,0.109650
4.124231,0.080933
